                               No. of Molecules =     1600
                  No. of Atoms in Each Molecule =        1
                                      Time Step =          1.0000
                                No. of MD Steps =      600
                            Desired Temperature =         85.0000
                            Cubix Box Dimension =         42.3212
                   Lennard-Jones Parameters eps =          0.2381    Sigms          3.4050
      Cutoff for Lennard-Jones potential (RCut) =         10.0000
                                Mass of LJ Atom =         39.9480




Temperature is set to       85.000
Initial potential en       -2105.83958
        Step              PE              KE                TE 
         1         -2105.75944         405.05877       -1700.70067
         2         -2105.67754         404.97687       -1700.70067
         3         -2105.59391         404.89325       -1700.70066
         4         -2105.50858         404.80792       -1700.70066
         5         -2105.42158         404.72092       -1700.70066
         6         -2105.33297         404.63231       -1700.70066
         7         -2105.24279         404.54214       -1700.70065
         8         -2105.15111         404.45046       -1700.70065
         9         -2105.05801         404.35736       -1700.70065
        10         -2104.96356         404.26291       -1700.70065
        11         -2104.86782         404.16717       -1700.70065
        12         -2104.77086         404.07022       -1700.70064
        13         -2104.67277         403.97214       -1700.70063
        14         -2104.57366         403.87303       -1700.70062
        15         -2104.47361         403.77299       -1700.70062
        16         -2104.37271         403.67210       -1700.70061
        17         -2104.27105         403.57045       -1700.70060
        18         -2104.16874         403.46814       -1700.70060
        19         -2104.06588         403.36530       -1700.70059
        20         -2103.96261         403.26202       -1700.70058
        21         -2103.85899         403.15841       -1700.70057
        22         -2103.75515         403.05458       -1700.70057
        23         -2103.65122         402.95066       -1700.70056
        24         -2103.54732         402.84677       -1700.70055
        25         -2103.44359         402.74304       -1700.70054
        26         -2103.34011         402.63958       -1700.70053
        27         -2103.23703         402.53651       -1700.70052
        28         -2103.13450         402.43397       -1700.70053
        29         -2103.03260         402.33208       -1700.70053
        30         -2102.93147         402.23095       -1700.70052
        31         -2102.83122         402.13070       -1700.70052
        32         -2102.73197         402.03145       -1700.70051
        33         -2102.63382         401.93332       -1700.70050
        34         -2102.53692         401.83641       -1700.70050
        35         -2102.44136         401.74086       -1700.70050
        36         -2102.34725         401.64677       -1700.70049
        37         -2102.25471         401.55423       -1700.70048
        38         -2102.16385         401.46338       -1700.70048
        39         -2102.07479         401.37432       -1700.70047
        40         -2101.98761         401.28715       -1700.70046
        41         -2101.90240         401.20195       -1700.70045
        42         -2101.81925         401.11880       -1700.70045
        43         -2101.73826         401.03781       -1700.70045
        44         -2101.65949         400.95904       -1700.70045
        45         -2101.58301         400.88257       -1700.70044
        46         -2101.50889         400.80846       -1700.70043
        47         -2101.43722         400.73678       -1700.70043
        48         -2101.36803         400.66760       -1700.70044
        49         -2101.30140         400.60096       -1700.70044
        50         -2101.23734         400.53690       -1700.70044
        51         -2101.17589         400.47545       -1700.70044
        52         -2101.11707         400.41662       -1700.70044
        53         -2101.06090         400.36045       -1700.70045
        54         -2101.00739         400.30694       -1700.70045
        55         -2100.95659         400.25614       -1700.70045
        56         -2100.90847         400.20802       -1700.70046
        57         -2100.86303         400.16257       -1700.70046
        58         -2100.82025         400.11978       -1700.70046
        59         -2100.78011         400.07964       -1700.70047
        60         -2100.74260         400.04212       -1700.70047
        61         -2100.70766         400.00718       -1700.70047
        62         -2100.67526         399.97478       -1700.70048
        63         -2100.64534         399.94485       -1700.70049
        64         -2100.61783         399.91735       -1700.70049
        65         -2100.59271         399.89222       -1700.70049
        66         -2100.56991         399.86942       -1700.70049
        67         -2100.54935         399.84886       -1700.70049
        68         -2100.53096         399.83047       -1700.70049
        69         -2100.51467         399.81418       -1700.70049
        70         -2100.50042         399.79992       -1700.70050
        71         -2100.48813         399.78762       -1700.70051
        72         -2100.47770         399.77718       -1700.70051
        73         -2100.46901         399.76850       -1700.70051
        74         -2100.46200         399.76148       -1700.70052
        75         -2100.45657         399.75604       -1700.70053
        76         -2100.45265         399.75212       -1700.70053
        77         -2100.45014         399.74960       -1700.70054
        78         -2100.44893         399.74838       -1700.70054
        79         -2100.44892         399.74837       -1700.70055
        80         -2100.45001         399.74946       -1700.70056
        81         -2100.45213         399.75156       -1700.70056
        82         -2100.45518         399.75461       -1700.70058
        83         -2100.45907         399.75850       -1700.70057
        84         -2100.46374         399.76316       -1700.70058
        85         -2100.46907         399.76849       -1700.70058
        86         -2100.47501         399.77442       -1700.70059
        87         -2100.48144         399.78084       -1700.70060
        88         -2100.48830         399.78769       -1700.70061
        89         -2100.49553         399.79492       -1700.70061
        90         -2100.50307         399.80245       -1700.70062
        91         -2100.51085         399.81023       -1700.70062
        92         -2100.51882         399.81818       -1700.70064
        93         -2100.52691         399.82627       -1700.70064
        94         -2100.53507         399.83442       -1700.70065
        95         -2100.54325         399.84260       -1700.70066
        96         -2100.55142         399.85076       -1700.70066
        97         -2100.55956         399.85890       -1700.70066
        98         -2100.56764         399.86697       -1700.70066
        99         -2100.57561         399.87495       -1700.70067
       100         -2100.58347         399.88280       -1700.70067
       101         -2100.59121         399.89054       -1700.70067
       102         -2100.59881         399.89813       -1700.70068
       103         -2100.60625         399.90557       -1700.70068
       104         -2100.61355         399.91287       -1700.70069
       105         -2100.62073         399.92004       -1700.70069
       106         -2100.62778         399.92709       -1700.70069
       107         -2100.63471         399.93403       -1700.70068
       108         -2100.64159         399.94091       -1700.70068
       109         -2100.64841         399.94773       -1700.70068
       110         -2100.65519         399.95452       -1700.70068
       111         -2100.66199         399.96132       -1700.70067
       112         -2100.66886         399.96819       -1700.70067
       113         -2100.67583         399.97516       -1700.70067
       114         -2100.68295         399.98229       -1700.70067
       115         -2100.69027         399.98960       -1700.70066
       116         -2100.69783         399.99716       -1700.70066
       117         -2100.70570         400.00503       -1700.70067
       118         -2100.71392         400.01326       -1700.70066
       119         -2100.72255         400.02189       -1700.70066
       120         -2100.73165         400.03099       -1700.70066
       121         -2100.74130         400.04065       -1700.70065
       122         -2100.75159         400.05095       -1700.70064
       123         -2100.76257         400.06193       -1700.70064
       124         -2100.77430         400.07367       -1700.70064
       125         -2100.78685         400.08622       -1700.70063
       126         -2100.80028         400.09965       -1700.70063
       127         -2100.81465         400.11403       -1700.70062
       128         -2100.83005         400.12943       -1700.70061
       129         -2100.84652         400.14591       -1700.70061
       130         -2100.86414         400.16354       -1700.70060
       131         -2100.88298         400.18238       -1700.70060
       132         -2100.90309         400.20249       -1700.70060
       133         -2100.92453         400.22394       -1700.70059
       134         -2100.94737         400.24678       -1700.70059
       135         -2100.97163         400.27105       -1700.70059
       136         -2100.99739         400.29680       -1700.70059
       137         -2101.02469         400.32410       -1700.70059
       138         -2101.05357         400.35298       -1700.70059
       139         -2101.08408         400.38349       -1700.70059
       140         -2101.11625         400.41567       -1700.70058
       141         -2101.15013         400.44956       -1700.70058
       142         -2101.18577         400.48519       -1700.70058
       143         -2101.22317         400.52259       -1700.70058
       144         -2101.26235         400.56177       -1700.70057
       145         -2101.30335         400.60279       -1700.70057
       146         -2101.34621         400.64564       -1700.70057
       147         -2101.39091         400.69034       -1700.70057
       148         -2101.43747         400.73690       -1700.70057
       149         -2101.48593         400.78535       -1700.70058
       150         -2101.53622         400.83565       -1700.70057
       151         -2101.58838         400.88780       -1700.70058
       152         -2101.64238         400.94180       -1700.70058
       153         -2101.69823         400.99764       -1700.70060
       154         -2101.75592         401.05532       -1700.70060
       155         -2101.81543         401.11483       -1700.70060
       156         -2101.87674         401.17613       -1700.70061
       157         -2101.93980         401.23919       -1700.70062
       158         -2102.00459         401.30398       -1700.70062
       159         -2102.07109         401.37047       -1700.70062
       160         -2102.13922         401.43861       -1700.70062
       161         -2102.20898         401.50836       -1700.70062
       162         -2102.28032         401.57969       -1700.70063
       163         -2102.35320         401.65257       -1700.70063
       164         -2102.42759         401.72697       -1700.70062
       165         -2102.50344         401.80282       -1700.70062
       166         -2102.58070         401.88007       -1700.70062
       167         -2102.65929         401.95866       -1700.70063
       168         -2102.73917         402.03854       -1700.70063
       169         -2102.82027         402.11964       -1700.70063
       170         -2102.90253         402.20190       -1700.70064
       171         -2102.98589         402.28525       -1700.70064
       172         -2103.07030         402.36965       -1700.70065
       173         -2103.15567         402.45502       -1700.70065
       174         -2103.24198         402.54132       -1700.70066
       175         -2103.32914         402.62848       -1700.70066
       176         -2103.41706         402.71639       -1700.70067
       177         -2103.50566         402.80499       -1700.70067
       178         -2103.59490         402.89423       -1700.70067
       179         -2103.68468         402.98401       -1700.70067
       180         -2103.77493         403.07426       -1700.70067
       181         -2103.86557         403.16489       -1700.70068
       182         -2103.95653         403.25584       -1700.70068
       183         -2104.04773         403.34704       -1700.70069
       184         -2104.13907         403.43837       -1700.70070
       185         -2104.23047         403.52976       -1700.70070
       186         -2104.32185         403.62114       -1700.70071
       187         -2104.41312         403.71242       -1700.70071
       188         -2104.50421         403.80350       -1700.70072
       189         -2104.59502         403.89430       -1700.70072
       190         -2104.68546         403.98474       -1700.70072
       191         -2104.77548         404.07475       -1700.70073
       192         -2104.86497         404.16423       -1700.70073
       193         -2104.95384         404.25311       -1700.70073
       194         -2105.04203         404.34129       -1700.70074
       195         -2105.12943         404.42869       -1700.70074
       196         -2105.21596         404.51521       -1700.70075
       197         -2105.30154         404.60078       -1700.70076
       198         -2105.38609         404.68533       -1700.70077
       199         -2105.46951         404.76874       -1700.70077
       200         -2105.55171         404.85094       -1700.70077
       201         -2105.63260         404.93183       -1700.70078
       202         -2105.71210         405.01133       -1700.70078
       203         -2105.79012         405.08934       -1700.70078
       204         -2105.86656         405.16577       -1700.70079
       205         -2105.94134         405.24054       -1700.70080
       206         -2106.01437         405.31357       -1700.70081
       207         -2106.08557         405.38476       -1700.70081
       208         -2106.15486         405.45404       -1700.70081
       209         -2106.22213         405.52131       -1700.70082
       210         -2106.28730         405.58648       -1700.70082
       211         -2106.35028         405.64946       -1700.70082
       212         -2106.41101         405.71018       -1700.70083
       213         -2106.46939         405.76856       -1700.70083
       214         -2106.52534         405.82451       -1700.70083
       215         -2106.57879         405.87796       -1700.70083
       216         -2106.62969         405.92885       -1700.70084
       217         -2106.67792         405.97708       -1700.70084
       218         -2106.72343         406.02258       -1700.70085
       219         -2106.76610         406.06524       -1700.70086
       220         -2106.80587         406.10500       -1700.70087
       221         -2106.84266         406.14178       -1700.70088
       222         -2106.87639         406.17551       -1700.70088
       223         -2106.90698         406.20609       -1700.70089
       224         -2106.93434         406.23345       -1700.70089
       225         -2106.95844         406.25754       -1700.70089
       226         -2106.97918         406.27828       -1700.70090
       227         -2106.99652         406.29562       -1700.70090
       228         -2107.01037         406.30946       -1700.70091
       229         -2107.02067         406.31976       -1700.70091
       230         -2107.02740         406.32648       -1700.70091
       231         -2107.03045         406.32954       -1700.70092
       232         -2107.02977         406.32886       -1700.70091
       233         -2107.02530         406.32438       -1700.70092
       234         -2107.01697         406.31606       -1700.70092
       235         -2107.00476         406.30384       -1700.70092
       236         -2106.98859         406.28766       -1700.70093
       237         -2106.96843         406.26750       -1700.70093
       238         -2106.94423         406.24330       -1700.70094
       239         -2106.91598         406.21505       -1700.70093
       240         -2106.88364         406.18271       -1700.70093
       241         -2106.84717         406.14623       -1700.70094
       242         -2106.80651         406.10557       -1700.70094
       243         -2106.76165         406.06071       -1700.70094
       244         -2106.71256         406.01161       -1700.70094
       245         -2106.65919         405.95825       -1700.70094
       246         -2106.60156         405.90062       -1700.70094
       247         -2106.53963         405.83868       -1700.70095
       248         -2106.47339         405.77245       -1700.70095
       249         -2106.40287         405.70191       -1700.70095
       250         -2106.32805         405.62710       -1700.70095
       251         -2106.24894         405.54798       -1700.70096
       252         -2106.16554         405.46457       -1700.70097
       253         -2106.07784         405.37688       -1700.70096
       254         -2105.98588         405.28492       -1700.70096
       255         -2105.88968         405.18873       -1700.70095
       256         -2105.78928         405.08832       -1700.70096
       257         -2105.68468         404.98372       -1700.70096
       258         -2105.57594         404.87498       -1700.70096
       259         -2105.46311         404.76215       -1700.70096
       260         -2105.34624         404.64529       -1700.70096
       261         -2105.22540         404.52446       -1700.70095
       262         -2105.10064         404.39971       -1700.70094
       263         -2104.97204         404.27111       -1700.70093
       264         -2104.83969         404.13876       -1700.70093
       265         -2104.70365         404.00273       -1700.70092
       266         -2104.56401         403.86309       -1700.70092
       267         -2104.42088         403.71996       -1700.70092
       268         -2104.27434         403.57343       -1700.70091
       269         -2104.12450         403.42360       -1700.70090
       270         -2103.97149         403.27059       -1700.70089
       271         -2103.81544         403.11455       -1700.70089
       272         -2103.65647         402.95559       -1700.70088
       273         -2103.49472         402.79386       -1700.70087
       274         -2103.33034         402.62949       -1700.70085
       275         -2103.16348         402.46264       -1700.70084
       276         -2102.99429         402.29346       -1700.70082
       277         -2102.82292         402.12211       -1700.70081
       278         -2102.64955         401.94875       -1700.70080
       279         -2102.47435         401.77356       -1700.70080
       280         -2102.29749         401.59671       -1700.70078
       281         -2102.11915         401.41839       -1700.70076
       282         -2101.93952         401.23877       -1700.70075
       283         -2101.75877         401.05803       -1700.70074
       284         -2101.57711         400.87638       -1700.70073
       285         -2101.39473         400.69401       -1700.70072
       286         -2101.21184         400.51113       -1700.70071
       287         -2101.02864         400.32795       -1700.70070
